Flux	Comsol
symbol_size	0
color	Blue
line_thickness	2
0.212024048	3.41E-43
0.424048096	6.23E-33
0.636072144	1.05E-28
0.848096192	5.86E-25
1.06012024	4.98E-23
1.272144289	1.41E-21
1.484168337	3.52E-20
1.696192385	3.39E-19
1.908216433	1.85E-18
2.120240481	7.77E-18
2.332264529	2.55E-17
2.544288577	7.20E-17
2.756312625	1.77E-16
2.968336673	4.02E-16
3.180360721	8.19E-16
3.39238477	1.53E-15
3.604408818	2.67E-15
3.816432866	4.41E-15
4.028456914	6.92E-15
4.240480962	1.04E-14
4.45250501	1.51E-14
4.664529058	2.13E-14
4.876553106	2.92E-14
5.088577154	3.90E-14
5.300601202	5.09E-14
5.512625251	6.53E-14
5.724649299	8.22E-14
5.936673347	1.02E-13
6.148697395	1.24E-13
6.360721443	1.50E-13
6.572745491	1.79E-13
6.784769539	2.11E-13
6.996793587	2.46E-13
7.208817635	2.84E-13
7.420841683	3.26E-13
7.632865731	3.71E-13
7.84488978	4.20E-13
8.056913828	4.72E-13
8.268937876	5.27E-13
8.480961924	5.85E-13
8.692985972	6.46E-13
8.90501002	7.10E-13
9.117034068	7.77E-13
9.329058116	8.47E-13
9.541082164	9.19E-13
9.753106212	9.94E-13
9.965130261	1.07E-12
10.17715431	1.15E-12
10.38917836	1.23E-12
10.6012024	1.32E-12
10.81322645	1.40E-12
11.0252505	1.49E-12
11.23727455	1.58E-12
11.4492986	1.67E-12
11.66132265	1.76E-12
11.87334669	1.86E-12
12.08537074	1.95E-12
12.29739479	2.05E-12
12.50941884	2.15E-12
12.72144289	2.25E-12
12.93346693	2.35E-12
13.14549098	2.45E-12
13.35751503	2.55E-12
13.56953908	2.65E-12
13.78156313	2.75E-12
13.99358717	2.85E-12
14.20561122	2.95E-12
14.41763527	3.06E-12
14.62965932	3.16E-12
14.84168337	3.26E-12
15.05370741	3.37E-12
15.26573146	3.47E-12
15.47775551	3.57E-12
15.68977956	3.68E-12
15.90180361	3.78E-12
16.11382766	3.88E-12
16.3258517	3.98E-12
16.53787575	4.09E-12
16.7498998	4.19E-12
16.96192385	4.29E-12
17.1739479	4.39E-12
17.38597194	4.49E-12
17.59799599	4.59E-12
17.81002004	4.69E-12
18.02204409	4.79E-12
18.23406814	4.89E-12
18.44609218	4.98E-12
18.65811623	5.08E-12
18.87014028	5.18E-12
19.08216433	5.27E-12
19.29418838	5.37E-12
19.50621242	5.46E-12
19.71823647	5.55E-12
19.93026052	5.65E-12
20.14228457	5.74E-12
20.35430862	5.83E-12
20.56633267	5.92E-12
20.77835671	6.01E-12
20.99038076	6.10E-12
21.20240481	6.19E-12
21.41442886	6.28E-12
21.62645291	6.36E-12
21.83847695	6.45E-12
22.050501	6.53E-12
22.26252505	6.62E-12
22.4745491	6.70E-12
22.68657315	6.78E-12
22.89859719	6.86E-12
23.11062124	6.94E-12
23.32264529	7.02E-12
23.53466934	7.10E-12
23.74669339	7.18E-12
23.95871743	7.26E-12
24.17074148	7.34E-12
24.38276553	7.41E-12
24.59478958	7.49E-12
24.80681363	7.56E-12
25.01883768	7.63E-12
25.23086172	7.71E-12
25.44288577	7.78E-12
25.65490982	7.85E-12
25.86693387	7.92E-12
26.07895792	7.99E-12
26.29098196	8.06E-12
26.50300601	8.12E-12
26.71503006	8.19E-12
26.92705411	8.26E-12
27.13907816	8.32E-12
27.3511022	8.38E-12
27.56312625	8.45E-12
27.7751503	8.51E-12
27.98717435	8.57E-12
28.1991984	8.63E-12
28.41122244	8.69E-12
28.62324649	8.75E-12
28.83527054	8.81E-12
29.04729459	8.87E-12
29.25931864	8.93E-12
29.47134269	8.99E-12
29.68336673	9.04E-12
29.89539078	9.10E-12
30.10741483	9.15E-12
30.31943888	9.21E-12
30.53146293	9.26E-12
30.74348697	9.31E-12
30.95551102	9.36E-12
31.16753507	9.42E-12
31.37955912	9.47E-12
31.59158317	9.52E-12
31.80360721	9.57E-12
32.01563126	9.61E-12
32.22765531	9.66E-12
32.43967936	9.71E-12
32.65170341	9.76E-12
32.86372745	9.80E-12
33.0757515	9.85E-12
33.28777555	9.89E-12
33.4997996	9.94E-12
33.71182365	9.98E-12
33.9238477	1.00E-11
34.13587174	1.01E-11
34.34789579	1.01E-11
34.55991984	1.01E-11
34.77194389	1.02E-11
34.98396794	1.02E-11
35.19599198	1.03E-11
35.40801603	1.03E-11
35.62004008	1.03E-11
35.83206413	1.04E-11
36.04408818	1.04E-11
36.25611222	1.05E-11
36.46813627	1.05E-11
36.68016032	1.05E-11
36.89218437	1.06E-11
37.10420842	1.06E-11
37.31623246	1.06E-11
37.52825651	1.07E-11
37.74028056	1.07E-11
37.95230461	1.07E-11
38.16432866	1.08E-11
38.37635271	1.08E-11
38.58837675	1.08E-11
38.8004008	1.09E-11
39.01242485	1.09E-11
39.2244489	1.09E-11
39.43647295	1.10E-11
39.64849699	1.10E-11
39.86052104	1.10E-11
40.07254509	1.10E-11
40.28456914	1.11E-11
40.49659319	1.11E-11
40.70861723	1.11E-11
40.92064128	1.12E-11
41.13266533	1.12E-11
41.34468938	1.12E-11
41.55671343	1.12E-11
41.76873747	1.13E-11
41.98076152	1.13E-11
42.19278557	1.13E-11
42.40480962	1.13E-11
42.61683367	1.14E-11
42.82885772	1.14E-11
43.04088176	1.14E-11
43.25290581	1.14E-11
43.46492986	1.15E-11
43.67695391	1.15E-11
43.88897796	1.15E-11
44.101002	1.15E-11
44.31302605	1.15E-11
44.5250501	1.16E-11
44.73707415	1.16E-11
44.9490982	1.16E-11
45.16112224	1.16E-11
45.37314629	1.16E-11
45.58517034	1.17E-11
45.79719439	1.17E-11
46.00921844	1.17E-11
46.22124248	1.17E-11
46.43326653	1.17E-11
46.64529058	1.18E-11
46.85731463	1.18E-11
47.06933868	1.18E-11
47.28136273	1.18E-11
47.49338677	1.18E-11
47.70541082	1.18E-11
47.91743487	1.19E-11
48.12945892	1.19E-11
48.34148297	1.19E-11
48.55350701	1.19E-11
48.76553106	1.19E-11
48.97755511	1.19E-11
49.18957916	1.19E-11
49.40160321	1.20E-11
49.61362725	1.20E-11
49.8256513	1.20E-11
50.03767535	1.20E-11
50.2496994	1.20E-11
50.46172345	1.20E-11
50.67374749	1.20E-11
50.88577154	1.21E-11
51.09779559	1.21E-11
51.30981964	1.21E-11
51.52184369	1.21E-11
51.73386774	1.21E-11
51.94589178	1.21E-11
52.15791583	1.21E-11
52.36993988	1.21E-11
52.58196393	1.21E-11
52.79398798	1.22E-11
53.00601202	1.22E-11
53.21803607	1.22E-11
53.43006012	1.22E-11
53.64208417	1.22E-11
53.85410822	1.22E-11
54.06613226	1.22E-11
54.27815631	1.22E-11
54.49018036	1.22E-11
54.70220441	1.22E-11
54.91422846	1.23E-11
55.12625251	1.23E-11
55.33827655	1.23E-11
55.5503006	1.23E-11
55.76232465	1.23E-11
55.9743487	1.23E-11
56.18637275	1.23E-11
56.39839679	1.23E-11
56.61042084	1.23E-11
56.82244489	1.23E-11
57.03446894	1.23E-11
57.24649299	1.23E-11
57.45851703	1.24E-11
57.67054108	1.24E-11
57.88256513	1.24E-11
58.09458918	1.24E-11
58.30661323	1.24E-11
58.51863727	1.24E-11
58.73066132	1.24E-11
58.94268537	1.24E-11
59.15470942	1.24E-11
59.36673347	1.24E-11
59.57875752	1.24E-11
59.79078156	1.24E-11
60.00280561	1.24E-11
60.21482966	1.24E-11
60.42685371	1.24E-11
60.63887776	1.24E-11
60.8509018	1.24E-11
61.06292585	1.24E-11
61.2749499	1.25E-11
61.48697395	1.25E-11
61.698998	1.25E-11
61.91102204	1.25E-11
62.12304609	1.25E-11
62.33507014	1.25E-11
62.54709419	1.25E-11
62.75911824	1.25E-11
62.97114228	1.25E-11
63.18316633	1.25E-11
63.39519038	1.25E-11
63.60721443	1.25E-11
63.81923848	1.25E-11
64.03126253	1.25E-11
64.24328657	1.25E-11
64.45531062	1.25E-11
64.66733467	1.25E-11
64.87935872	1.25E-11
65.09138277	1.25E-11
65.30340681	1.25E-11
65.51543086	1.25E-11
65.72745491	1.25E-11
65.93947896	1.25E-11
66.15150301	1.25E-11
66.36352705	1.25E-11
66.5755511	1.25E-11
66.78757515	1.25E-11
66.9995992	1.25E-11
67.21162325	1.25E-11
67.42364729	1.25E-11
67.63567134	1.25E-11
67.84769539	1.25E-11
68.05971944	1.25E-11
68.27174349	1.25E-11
68.48376754	1.25E-11
68.69579158	1.25E-11
68.90781563	1.26E-11
69.11983968	1.26E-11
69.33186373	1.26E-11
69.54388778	1.26E-11
69.75591182	1.26E-11
69.96793587	1.26E-11
70.17995992	1.26E-11
70.39198397	1.26E-11
70.60400802	1.26E-11
70.81603206	1.26E-11
71.02805611	1.26E-11
71.24008016	1.26E-11
71.45210421	1.26E-11
71.66412826	1.26E-11
71.8761523	1.26E-11
72.08817635	1.26E-11
72.3002004	1.26E-11
72.51222445	1.26E-11
72.7242485	1.26E-11
72.93627255	1.26E-11
73.14829659	1.26E-11
73.36032064	1.26E-11
73.57234469	1.26E-11
73.78436874	1.26E-11
73.99639279	1.26E-11
74.20841683	1.26E-11
74.42044088	1.26E-11
74.63246493	1.26E-11
74.84448898	1.26E-11
75.05651303	1.26E-11
75.26853707	1.26E-11
75.48056112	1.26E-11
75.69258517	1.26E-11
75.90460922	1.26E-11
76.11663327	1.25E-11
76.32865731	1.25E-11
76.54068136	1.25E-11
76.75270541	1.25E-11
76.96472946	1.25E-11
77.17675351	1.25E-11
77.38877756	1.25E-11
77.6008016	1.25E-11
77.81282565	1.25E-11
78.0248497	1.25E-11
78.23687375	1.25E-11
78.4488978	1.25E-11
78.66092184	1.25E-11
78.87294589	1.25E-11
79.08496994	1.25E-11
79.29699399	1.25E-11
79.50901804	1.25E-11
79.72104208	1.25E-11
79.93306613	1.25E-11
80.14509018	1.25E-11
80.35711423	1.25E-11
80.56913828	1.25E-11
80.78116232	1.25E-11
80.99318637	1.25E-11
81.20521042	1.25E-11
81.41723447	1.25E-11
81.62925852	1.25E-11
81.84128257	1.25E-11
82.05330661	1.25E-11
82.26533066	1.25E-11
82.47735471	1.25E-11
82.68937876	1.25E-11
82.90140281	1.25E-11
83.11342685	1.25E-11
83.3254509	1.25E-11
83.53747495	1.25E-11
83.749499	1.25E-11
83.96152305	1.25E-11
84.17354709	1.25E-11
84.38557114	1.25E-11
84.59759519	1.25E-11
84.80961924	1.25E-11
85.02164329	1.25E-11
85.23366733	1.25E-11
85.44569138	1.25E-11
85.65771543	1.25E-11
85.86973948	1.25E-11
86.08176353	1.25E-11
86.29378758	1.25E-11
86.50581162	1.25E-11
86.71783567	1.24E-11
86.92985972	1.24E-11
87.14188377	1.24E-11
87.35390782	1.24E-11
87.56593186	1.24E-11
87.77795591	1.24E-11
87.98997996	1.24E-11
88.20200401	1.24E-11
88.41402806	1.24E-11
88.6260521	1.24E-11
88.83807615	1.24E-11
89.0501002	1.24E-11
89.26212425	1.24E-11
89.4741483	1.24E-11
89.68617234	1.24E-11
89.89819639	1.24E-11
90.11022044	1.24E-11
90.32224449	1.24E-11
90.53426854	1.24E-11
90.74629259	1.24E-11
90.95831663	1.24E-11
91.17034068	1.24E-11
91.38236473	1.24E-11
91.59438878	1.24E-11
91.80641283	1.24E-11
92.01843687	1.24E-11
92.23046092	1.24E-11
92.44248497	1.24E-11
92.65450902	1.24E-11
92.86653307	1.24E-11
93.07855711	1.24E-11
93.29058116	1.24E-11
93.50260521	1.23E-11
93.71462926	1.23E-11
93.92665331	1.23E-11
94.13867735	1.23E-11
94.3507014	1.23E-11
94.56272545	1.23E-11
94.7747495	1.23E-11
94.98677355	1.23E-11
95.1987976	1.23E-11
95.41082164	1.23E-11
95.62284569	1.23E-11
95.83486974	1.23E-11
96.04689379	1.23E-11
96.25891784	1.23E-11
96.47094188	1.23E-11
96.68296593	1.23E-11
96.89498998	1.23E-11
97.10701403	1.23E-11
97.31903808	1.23E-11
97.53106212	1.23E-11
97.74308617	1.23E-11
97.95511022	1.23E-11
98.16713427	1.23E-11
98.37915832	1.23E-11
98.59118236	1.23E-11
98.80320641	1.23E-11
99.01523046	1.23E-11
99.22725451	1.22E-11
99.43927856	1.22E-11
99.65130261	1.22E-11
99.86332665	1.22E-11
100.0753507	1.22E-11
100.2873747	1.22E-11
100.4993988	1.22E-11
100.7114228	1.22E-11
100.9234469	1.22E-11
101.1354709	1.22E-11
101.347495	1.22E-11
101.559519	1.22E-11
101.7715431	1.22E-11
101.9835671	1.22E-11
102.1955912	1.22E-11
102.4076152	1.22E-11
102.6196393	1.22E-11
102.8316633	1.22E-11
103.0436874	1.22E-11
103.2557114	1.22E-11
103.4677355	1.22E-11
103.6797595	1.22E-11
103.8917836	1.22E-11
104.1038076	1.22E-11
104.3158317	1.22E-11
104.5278557	1.22E-11
104.7398798	1.21E-11
104.9519038	1.21E-11
105.1639279	1.21E-11
105.3759519	1.21E-11
105.587976	1.21E-11
105.8	1.21E-11
